it,cur,best,temp,d1,d2,d3,d4,r1,r2,r3,noise1,noise2
0,1119.0442032478709,1119.0442032478709,80.72197612806224,0.0,0.0,0.0,0.0,0.0,0.0,0.0,0.0,0.0
1,1082.6064325509074,1119.0442032478709,80.43912940304178,1.0,1.0,1.0,1.0,1.0,1.0,1.0,1.0,1.0
4,1070.779066476589,1082.6064325509074,79.59652185407232,1.0,1.0,1.0,1.0,1.0,1.0,1.0,1.0,1.0
8,1044.2717784300196,1070.779066476589,78.48675906068782,1.0,1.0,1.0,1.0,1.0,1.0,1.0,1.0,1.0
11,1018.6432060290483,1044.2717784300196,77.6646027771791,1.1219999999999999,0.99,1.0725,0.99,1.1219999999999999,1.056,0.99,1.045,1.1219999999999999
13,998.273442437041,1018.6432060290483,77.1212887127926,1.1219999999999999,0.99,1.0725,0.99,1.1219999999999999,1.056,0.99,1.045,1.1219999999999999
18,961.3231684543061,998.273442437041,75.77957408233682,1.1219999999999999,0.99,1.0725,0.99,1.1219999999999999,1.056,0.99,1.045,1.1219999999999999
19,926.5391189234415,961.3231684543061,75.51404534554487,1.1219999999999999,0.99,1.0725,0.99,1.1219999999999999,1.056,0.99,1.045,1.1219999999999999
20,909.9424246423873,926.5391189234415,75.24944701131741,1.44078,0.9801,1.226775,1.3101,1.3307799999999999,1.1554400000000002,1.0626,1.1759785714285713,1.22078
23,890.1212345291606,909.9424246423873,74.46120188014727,1.44078,0.9801,1.226775,1.3101,1.3307799999999999,1.1554400000000002,1.0626,1.1759785714285713,1.22078
25,895.0899367709553,890.1212345291606,73.94029767429336,1.44078,0.9801,1.226775,1.3101,1.3307799999999999,1.1554400000000002,1.0626,1.1759785714285713,1.22078
26,868.2951380997577,890.1212345291606,73.68121369187162,1.44078,0.9801,1.226775,1.3101,1.3307799999999999,1.1554400000000002,1.0626,1.1759785714285713,1.22078
27,841.7322696331721,868.2951380997577,73.4230375298409,1.44078,0.9801,1.226775,1.3101,1.3307799999999999,1.1554400000000002,1.0626,1.1759785714285713,1.22078
28,818.1746878699232,841.7322696331721,73.16576600723319,1.44078,0.9801,1.226775,1.3101,1.3307799999999999,1.1554400000000002,1.0626,1.1759785714285713,1.22078
30,802.4659812236584,818.1746878699232,72.65392421210562,1.5363722,0.9702989999999999,1.4170072500000002,1.626999,1.4824722,1.3913856000000002,1.171974,1.3622187857142856,1.3705721999999998
31,783.4572761099093,802.4659812236584,72.3993476332236,1.5363722,0.9702989999999999,1.4170072500000002,1.626999,1.4824722,1.3913856000000002,1.171974,1.3622187857142856,1.3705721999999998
32,741.727737765139,783.4572761099093,72.14566308096255,1.5363722,0.9702989999999999,1.4170072500000002,1.626999,1.4824722,1.3913856000000002,1.171974,1.3622187857142856,1.3705721999999998
33,720.1352500134174,741.727737765139,71.89286742969522,1.5363722,0.9702989999999999,1.4170072500000002,1.626999,1.4824722,1.3913856000000002,1.171974,1.3622187857142856,1.3705721999999998
34,701.6216923711177,720.1352500134174,71.64095756474643,1.5363722,0.9702989999999999,1.4170072500000002,1.626999,1.4824722,1.3913856000000002,1.171974,1.3622187857142856,1.3705721999999998
36,700.7242480637692,701.6216923711177,71.13978278963408,1.5363722,0.9702989999999999,1.4170072500000002,1.626999,1.4824722,1.3913856000000002,1.171974,1.3622187857142856,1.3705721999999998
37,689.3823866753548,700.7242480637692,70.89051170453587,1.5363722,0.9702989999999999,1.4170072500000002,1.626999,1.4824722,1.3913856000000002,1.171974,1.3622187857142856,1.3705721999999998
42,681.2193281704135,689.3823866753548,69.65719677551944,1.741008478,1.29059601,1.6228371775000001,1.626999,1.632647478,1.7074717440000002,1.4902542600000002,1.5548465978571426,1.6868664779999998
46,669.6306133762955,681.2193281704135,68.68601155947874,1.741008478,1.29059601,1.6228371775000001,1.626999,1.632647478,1.7074717440000002,1.4902542600000002,1.5548465978571426,1.6868664779999998
48,661.0835199354169,669.6306133762955,68.20550854044002,1.741008478,1.29059601,1.6228371775000001,1.626999,1.632647478,1.7074717440000002,1.4902542600000002,1.5548465978571426,1.6868664779999998
49,639.4148568744765,661.0835199354169,67.96651904037608,1.741008478,1.29059601,1.6228371775000001,1.626999,1.632647478,1.7074717440000002,1.4902542600000002,1.5548465978571426,1.6868664779999998
53,639.4073500563843,639.4148568744765,67.01890584987571,1.8555983932199998,1.2776900499,1.7166088057250002,1.94072901,1.81432100322,1.7728970265600001,1.4753517174000002,1.6052981318785713,1.8679978132199997
58,635.9614646594706,639.4073500563843,65.85294703361696,1.8555983932199998,1.2776900499,1.7166088057250002,1.94072901,1.81432100322,1.7728970265600001,1.4753517174000002,1.6052981318785713,1.8679978132199997
60,635.7701275973656,635.9614646594706,65.39226313097328,1.8370424092877997,1.264913149401,1.7654427176677503,2.0863217199,1.9281777931877997,1.7551680562944,1.4753517174000002,1.6992451505597856,1.8493178350877997
61,633.5397525786142,635.7701275973656,65.16313113550616,1.8370424092877997,1.264913149401,1.7654427176677503,2.0863217199,1.9281777931877997,1.7551680562944,1.4753517174000002,1.6992451505597856,1.8493178350877997
65,632.5555181809531,633.5397525786142,64.2546037683531,1.8370424092877997,1.264913149401,1.7654427176677503,2.0863217199,1.9281777931877997,1.7551680562944,1.4753517174000002,1.6992451505597856,1.8493178350877997
66,626.8986639314609,632.5555181809531,64.02945808789389,1.8370424092877997,1.264913149401,1.7654427176677503,2.0863217199,1.9281777931877997,1.7551680562944,1.4753517174000002,1.6992451505597856,1.8493178350877997
70,618.5836789756232,626.8986639314609,63.13673679038807,1.8846719851949219,1.25226401790699,1.7654427176677503,2.312958502701,2.0188960152559217,1.847616375731456,1.7905982002260001,1.8142526990541876,1.9628246567369216
74,610.3410382885041,618.5836789756232,62.256462128209485,1.8846719851949219,1.25226401790699,1.7654427176677503,2.312958502701,2.0188960152559217,1.847616375731456,1.7905982002260001,1.8142526990541876,1.9628246567369216
96,594.1821712958691,610.3410382885041,57.62980068624479,2.064967012689543,1.2273439639506407,1.7303104075861622,2.26693062849725,2.0603949845523286,1.9197488098544002,1.7549652960415028,1.8714919274858663,1.923764446067857
107,589.5766200204052,594.1821712958691,55.44705163466925,2.0443173425626475,1.2150705243111344,1.7130073035103006,2.3267613222122776,2.039791034706805,1.9830513217558563,1.7374156430810876,1.9627770082110079,1.9045268016071784
116,611.3384202748498,589.5766200204052,53.722800667472505,2.023874169137021,1.202919819068023,1.6958772304751977,2.4134937089901545,2.019393124359737,1.9632208085382976,1.8850414866502767,1.9431492381288977,1.9954815335911067
118,618.6819943298381,589.5766200204052,53.34697497420769,2.023874169137021,1.202919819068023,1.6958772304751977,2.4134937089901545,2.019393124359737,1.9632208085382976,1.8850414866502767,1.9431492381288977,1.9954815335911067
120,596.8601399147115,589.5766200204052,52.973778424434336,2.041135427445651,1.1908906208773429,1.7164184581704458,2.3893587719002527,1.9991991931161397,2.0435886004529147,1.866191071783774,1.9612177457476088,1.9755267182551957
121,582.6306765842738,589.5766200204052,52.78816032564622,2.041135427445651,1.1908906208773429,1.7164184581704458,2.3893587719002527,1.9991991931161397,2.0435886004529147,1.866191071783774,1.9612177457476088,1.9755267182551957
149,581.1925378964899,582.6306765842738,47.84677446710642,2.0005168324394824,1.2661918975218838,1.6822617308528538,2.4234855323394378,2.1343151291731286,2.0029211873039015,1.8290538694552767,1.9221895126072315,2.067388736561917
155,577.6770504563001,581.1925378964899,46.84962553209778,1.9805116641150875,1.253529978546665,1.6654391135443252,2.5092506770160434,2.195471977881397,2.0029211873039015,1.8107633307607238,1.9854676174811592,2.046714849196298
162,576.6501565350185,577.6770504563001,45.71251949778262,1.9607065474739367,1.2409946787611983,1.6487847224088819,2.550158170245883,2.2206601152454404,1.9828919754308625,1.8107633307607238,2.1306129413063477,2.0262477007043347
171,576.5492202430383,576.6501565350185,44.29098573479047,1.9410994819991974,1.2285847319735863,1.797296875184793,2.524656588543424,2.198453514092986,1.9630630556765538,1.9576556974531165,2.1093068118932843,2.0609852236972914
173,571.3536118568717,576.5492202430383,43.98114167952255,1.9410994819991974,1.2285847319735863,1.797296875184793,2.524656588543424,2.198453514092986,1.9630630556765538,1.9576556974531165,2.1093068118932843,2.0609852236972914
179,569.0670163781057,571.3536118568717,43.064554321761364,1.9410994819991974,1.2285847319735863,1.797296875184793,2.524656588543424,2.198453514092986,1.9630630556765538,1.9576556974531165,2.1093068118932843,2.0609852236972914
180,569.7386302011079,569.0670163781057,42.91365776621803,2.004188487179205,1.2162988846538505,1.8893239064329452,2.66441002265799,2.286468978952056,2.0259324251197883,2.048079140478585,2.0882137437743515,2.18180394288889
181,564.8734220049456,569.0670163781057,42.763289946449014,2.004188487179205,1.2162988846538505,1.8893239064329452,2.66441002265799,2.286468978952056,2.0259324251197883,2.048079140478585,2.0882137437743515,2.18180394288889
182,572.4934243835094,564.8734220049456,42.613449009784325,2.004188487179205,1.2162988846538505,1.8893239064329452,2.66441002265799,2.286468978952056,2.0259324251197883,2.048079140478585,2.0882137437743515,2.18180394288889
189,571.1774880654139,564.8734220049456,41.579160913312585,2.004188487179205,1.2162988846538505,1.8893239064329452,2.66441002265799,2.286468978952056,2.0259324251197883,2.048079140478585,2.0882137437743515,2.18180394288889
192,566.1810319511583,564.8734220049456,41.143615238895485,2.004188487179205,1.204135895807312,2.030430667368616,2.7252659224314097,2.3336042891625355,2.1706731008685907,2.0775983490737993,2.104831606336608,2.2733192367933346
196,564.3423174230977,564.8734220049456,40.569976437677965,2.004188487179205,1.204135895807312,2.030430667368616,2.7252659224314097,2.3336042891625355,2.1706731008685907,2.0775983490737993,2.104831606336608,2.2733192367933346
201,560.3074707293827,564.3423174230977,39.86416184546602,2.050146602307413,1.204135895807312,2.0601263606949294,2.6980132632070957,2.35026824627091,2.2314663698599047,2.056822365583061,2.083783290273242,2.30947493331429
232,600.5967962482518,560.3074707293827,35.75407156755229,2.0701134480722803,1.1801735914807465,2.0191298461171003,2.6178795712765814,2.3343684290884177,2.1651895872086957,2.015891600507958,2.0218928427688367,2.3217394683199224
236,583.3301948680801,560.3074707293827,35.255575685905335,2.0701134480722803,1.1801735914807465,2.0191298461171003,2.6178795712765814,2.3343684290884177,2.1651895872086957,2.015891600507958,2.0218928427688367,2.3217394683199224
237,585.8535529554365,560.3074707293827,35.132041493609925,2.0701134480722803,1.1801735914807465,2.0191298461171003,2.6178795712765814,2.3343684290884177,2.1651895872086957,2.015891600507958,2.0218928427688367,2.3217394683199224
239,574.7021106065624,560.3074707293827,34.88627016958924,2.0701134480722803,1.1801735914807465,2.0191298461171003,2.6178795712765814,2.3343684290884177,2.1651895872086957,2.015891600507958,2.0218928427688367,2.3217394683199224
244,571.9776514618994,560.3074707293827,34.279337636824046,2.099412313591557,1.168371855565939,2.1489385476559293,2.6792007755638156,2.4276914114642003,2.2435376913366087,2.025732684502878,2.051673914341148,2.3818554069700566
248,559.7839134506589,560.3074707293827,33.80140301600032,2.099412313591557,1.168371855565939,2.1489385476559293,2.6792007755638156,2.4276914114642003,2.2435376913366087,2.025732684502878,2.051673914341148,2.3818554069700566
255,561.4473871187495,559.7839134506589,32.980995618902156,2.0784181904556416,1.4866881370102798,2.1941158288460367,2.6524087678081774,2.403414497349558,2.2211023144232427,2.137975357657849,2.0711571751977367,2.4240368529003558
258,565.4822338124645,559.7839134506589,32.635516545629585,2.0784181904556416,1.4866881370102798,2.1941158288460367,2.6524087678081774,2.403414497349558,2.2211023144232427,2.137975357657849,2.0711571751977367,2.4240368529003558
259,563.8337487766804,559.7839134506589,32.5211629406133,2.0784181904556416,1.4866881370102798,2.1941158288460367,2.6524087678081774,2.403414497349558,2.2211023144232427,2.137975357657849,2.0711571751977367,2.4240368529003558
264,577.6752584810198,559.7839134506589,31.955377269171073,2.1576340085510854,1.471821255640177,2.238841337224243,2.6524087678081774,2.3793803523760624,2.2655579579456773,2.1765956040812706,2.0504456034457594,2.471225055799924
265,576.1030053630938,559.7839134506589,31.843406846233965,2.1576340085510854,1.471821255640177,2.238841337224243,2.6524087678081774,2.3793803523760624,2.2655579579456773,2.1765956040812706,2.0504456034457594,2.471225055799924
266,573.7679178720011,559.7839134506589,31.73182876338745,2.1576340085510854,1.471821255640177,2.238841337224243,2.6524087678081774,2.3793803523760624,2.2655579579456773,2.1765956040812706,2.0504456034457594,2.471225055799924
269,590.8687260203809,559.7839134506589,31.39943483201274,2.1576340085510854,1.471821255640177,2.238841337224243,2.6524087678081774,2.3793803523760624,2.2655579579456773,2.1765956040812706,2.0504456034457594,2.471225055799924
280,572.2131222584038,559.7839134506589,30.210170149791793,2.2466970917809186,1.4425320126529375,2.2685383946134805,2.5996258333287945,2.4112306833637787,2.2699733545825582,2.2298296480404582,2.083891735937189,2.4901101771895053
282,570.7649785439952,559.7839134506589,29.998830495136225,2.2466970917809186,1.4425320126529375,2.2685383946134805,2.5996258333287945,2.4112306833637787,2.2699733545825582,2.2298296480404582,2.083891735937189,2.4901101771895053
284,569.7030483959417,559.7839134506589,29.788969297881213,2.2466970917809186,1.4425320126529375,2.2685383946134805,2.5996258333287945,2.4112306833637787,2.2699733545825582,2.2298296480404582,2.083891735937189,2.4901101771895053
288,562.4903943770595,559.7839134506589,29.373640976869023,2.2466970917809186,1.4425320126529375,2.2685383946134805,2.5996258333287945,2.4112306833637787,2.2699733545825582,2.2298296480404582,2.083891735937189,2.4901101771895053
292,556.8335401275671,559.7839134506589,28.964103309857304,2.2242301208631092,1.5281066925264082,2.379186344000679,2.673629574995507,2.453785043196808,2.380606954370066,2.2075313515600534,2.129719485244484,2.5652090754176102
304,555.613111047298,556.8335401275671,27.7694324919209,2.201987819654478,1.512825625601144,2.355394480560672,2.7293932792455515,2.51174719276484,2.3568008848263653,2.1854560380444528,2.108422290392039,2.649556984663434
312,574.6168992468126,555.613111047298,27.0004881172345,2.2899679414579333,1.4976973693451325,2.3318405357550653,2.702099346453096,2.5691297208371915,2.333232875978102,2.1636014776640082,2.0873380674881186,2.6890614148167993
314,574.4201756940101,555.613111047298,26.811602261711855,2.2899679414579333,1.4976973693451325,2.3318405357550653,2.702099346453096,2.5691297208371915,2.333232875978102,2.1636014776640082,2.0873380674881186,2.6890614148167993
319,555.613111047298,555.613111047298,26.34514845082613,2.2899679414579333,1.4976973693451325,2.3318405357550653,2.702099346453096,2.5691297208371915,2.333232875978102,2.1636014776640082,2.0873380674881186,2.6890614148167993
324,555.5165369873918,555.613111047298,25.886809752031283,2.4170682620433537,1.5827203956516813,2.3085221303975145,2.725078352988565,2.5434384236288197,2.4265672138849874,2.191965462887368,2.0997980201465705,2.749670800668631
334,556.9144935664702,555.5165369873918,24.9939154175367,2.39289757942292,1.5668931916951645,2.2854369090935394,2.780327569458679,2.5180040393925314,2.4023015417461373,2.2525458082584944,2.0788000399451048,2.8046740926619447
336,554.6825202374695,555.5165369873918,24.819066834207256,2.39289757942292,1.5668931916951645,2.2854369090935394,2.780327569458679,2.5180040393925314,2.4023015417461373,2.2525458082584944,2.0788000399451048,2.8046740926619447
349,552.76327232301,554.6825202374695,23.711986632566866,2.3689686036286908,1.5668931916951645,2.427582540002604,2.782524293764092,2.492823998998606,2.460778526328676,2.280020350175909,2.1540120395456537,2.7766273517353253
352,551.7626641692348,552.76327232301,23.46360131206503,2.427778917592404,1.5512242597782129,2.403306714602578,2.754699050826451,2.46789575900862,2.502170741065389,2.280020350175909,2.132471919150197,2.831361078217972
356,551.9026989082972,551.7626641692348,23.13646350342213,2.427778917592404,1.5512242597782129,2.403306714602578,2.754699050826451,2.46789575900862,2.502170741065389,2.280020350175909,2.132471919150197,2.831361078217972
359,555.5230097572709,551.7626641692348,22.894106842564213,2.427778917592404,1.5512242597782129,2.403306714602578,2.754699050826451,2.46789575900862,2.502170741065389,2.280020350175909,2.132471919150197,2.831361078217972
362,556.1946235802731,551.7626641692348,22.65428889083327,2.4035011284164796,1.5357120171804308,2.5292736474565523,2.847152060318187,2.443216801418534,2.4771490336547353,2.46722014667415,2.1486471999586954,2.883047467435792
366,556.0545888412106,551.7626641692348,22.338434801533708,2.4035011284164796,1.5357120171804308,2.5292736474565523,2.847152060318187,2.443216801418534,2.4771490336547353,2.46722014667415,2.1486471999586954,2.883047467435792
373,553.7833840939236,551.7626641692348,21.796249699273353,2.454466117132315,1.5203548970086265,2.5539809109819864,2.8186805397150048,2.5354513000710153,2.452377543318188,2.4425479452074086,2.1646607279591086,2.8875503260947677
376,572.6429067748378,551.7626641692348,21.56793190577998,2.454466117132315,1.5203548970086265,2.5539809109819864,2.8186805397150048,2.5354513000710153,2.452377543318188,2.4425479452074086,2.1646607279591086,2.8875503260947677
383,594.6032518102636,551.7626641692348,21.04444798804923,2.4799214559609917,1.5051513480385401,2.728441101872167,2.7904937343178546,2.5100967870703053,2.465353767885006,2.4681224657553344,2.1930141206795173,2.8872462514052484
392,595.7437291293493,551.7626641692348,20.390023474432226,2.5051222414013816,1.4900998345581546,2.7011566908534452,2.762588796974676,2.484995819199602,2.478200230206156,2.4434412410977813,2.208583979472722,2.8583737888911958
393,575.7437291293493,551.7626641692348,20.318577610003885,2.5051222414013816,1.4900998345581546,2.7011566908534452,2.762588796974676,2.484995819199602,2.478200230206156,2.4434412410977813,2.208583979472722,2.8583737888911958
407,575.5770351006017,551.7626641692348,19.344226624221815,2.5500710189873677,1.4900998345581546,2.6741451239449106,2.7349629090049294,2.497645861007606,2.6534182279040945,2.4190068286868036,2.3614981396779946,2.8297900510022838
412,575.3846517550633,551.7626641692348,19.007686191485693,2.524570308797494,1.4751988362125732,2.7474036727054614,2.70761327991488,2.4726694023975297,2.6268840456250535,2.4281500937332687,2.3378831582812145,2.8300635790636894
413,553.3846517550633,551.7626641692348,18.941083984164244,2.524570308797494,1.4751988362125732,2.7474036727054614,2.70761327991488,2.4726694023975297,2.6268840456250535,2.4281500937332687,2.3378831582812145,2.8300635790636894
425,575.401742882924,551.7626641692348,18.15982864703587,2.549324605709519,1.4751988362125732,2.719929635978407,2.747203813782398,2.514609375040221,2.6672818718354696,2.403868592795936,2.3145043266984024,2.935096276606386
427,572.6624364933602,551.7626641692348,18.032788915189297,2.549324605709519,1.4751988362125732,2.719929635978407,2.747203813782398,2.514609375040221,2.6672818718354696,2.403868592795936,2.3145043266984024,2.935096276606386
430,571.3633030395913,551.7626641692348,17.84389373218976,2.523831359652424,1.4604468478504475,2.726063672951956,2.869731775644574,2.4894632812898188,2.7072757197837816,2.4298299068679765,2.341359283431418,2.9343167424117507
438,562.9637308219835,551.7626641692348,17.34979066717894,2.523831359652424,1.4604468478504475,2.726063672951956,2.869731775644574,2.4894632812898188,2.7072757197837816,2.4298299068679765,2.341359283431418,2.9343167424117507
